raw - raw,raw - raw,Truncation - Truncation,Truncation - Truncation
Raman Shift,Intensity,Truncated,Truncated
Raw Data x cm-1,Raw Data y a. u.,Raman shift cm-1,Intensity a. u.
param: nan,param: nan,param: nan,param: nan
raw data from data\raw\01_561nm_300g_3x20_mit1800_Toluol.txt,raw data from data\raw\01_561nm_300g_3x20_mit1800_Toluol.txt,Truncated to [500, 1600] cm⁻¹ (449 points).,Truncated to [500, 1600] cm⁻¹ (449 points).
149.874,9157.65,502.217,3183.45
152.598,8578.95,504.832,3070.9
155.32,8117.55,507.446,2988.8
158.043,7616.85,510.059,2985.55
160.764,7211.65,512.672,3142.2
163.484,6734.8,515.284,3531.75
166.204,6397.5,517.895,4682.8
168.922,6144.0,520.505,7818.0
171.64,5809.85,523.114,9774.55
174.357,5566.8,525.723,9983.3
177.073,5358.1,528.331,9556.1
179.789,5195.9,530.938,8151.05
182.503,5048.75,533.544,4969.85
185.217,4908.25,536.149,3117.3
187.93,4868.8,538.754,2512.1
190.642,4883.75,541.358,2206.45
193.353,4831.1,543.961,1983.9
196.063,4911.9,546.563,1850.7
198.772,5053.9,549.165,1771.3
201.481,5203.9,551.765,1717.35
204.189,5587.25,554.365,1645.95
206.896,6111.75,556.964,1613.0
209.602,6952.25,559.563,1574.25
212.307,8021.7,562.16,1544.05
215.011,9411.55,564.757,1509.25
217.715,10833.55,567.353,1484.3
220.417,11740.5,569.948,1476.5
223.119,12136.55,572.542,1463.65
225.82,11622.75,575.136,1461.25
228.52,10500.2,577.728,1430.9
231.22,9094.55,580.32,1454.6
233.918,7693.4,582.912,1461.1
236.616,6505.4,585.502,1440.15
239.313,5618.75,588.092,1470.95
242.009,5004.9,590.68,1478.8
244.704,4499.9,593.268,1500.85
247.398,4219.75,595.856,1534.2
250.092,3956.85,598.442,1560.8
252.784,3748.6,601.028,1622.45
255.476,3606.05,603.613,1673.55
258.167,3488.75,606.197,1746.0
260.857,3408.65,608.78,1845.2
263.546,3324.35,611.362,2010.8
266.235,3275.4,613.944,2261.3
268.922,3226.1,616.525,2670.95
271.609,3179.45,619.105,3395.6
274.295,3140.55,621.685,4263.05
276.98,3123.95,624.263,4895.1
279.665,3106.1,626.841,5014.15
282.348,3102.25,629.418,4710.4
285.031,3107.45,631.994,4056.4
287.713,3098.55,634.57,3152.4
290.394,3062.95,637.145,2462.55
293.074,3112.25,639.718,2001.2
295.753,3114.1,642.292,1732.35
298.432,3099.65,644.864,1578.15
301.109,3106.4,647.436,1463.1
303.786,3117.85,650.006,1400.05
306.462,3118.85,652.576,1338.1
309.137,3129.6,655.146,1314.6
311.812,3154.7,657.714,1273.5
314.485,3162.8,660.282,1257.35
317.158,3155.95,662.849,1239.9
319.83,3154.8,665.415,1233.45
322.501,3171.6,667.98,1204.35
325.171,3210.9,670.545,1195.15
327.84,3233.55,673.108,1195.7
330.509,3290.65,675.671,1211.75
333.177,3335.15,678.234,1198.2
335.844,3381.0,680.795,1194.5
338.51,3499.35,683.356,1201.4
341.175,3649.8,685.916,1201.05
343.839,3895.85,688.475,1202.35
346.503,4173.95,691.033,1223.75
349.166,4303.35,693.591,1233.15
351.828,4378.0,696.147,1240.0
354.489,4281.75,698.703,1253.55
357.149,4080.7,701.259,1236.8
359.809,3846.3,703.813,1250.35
362.468,3653.1,706.367,1236.45
365.126,3553.8,708.92,1233.85
367.783,3514.1,711.472,1239.3
370.439,3509.7,714.023,1255.7
373.094,3478.25,716.574,1246.4
375.749,3424.45,719.124,1269.55
378.403,3484.45,721.673,1333.0
381.056,3459.65,724.221,1416.55
383.708,3496.65,726.769,1539.05
386.359,3471.55,729.316,1693.8
389.01,3485.7,731.862,1817.15
391.66,3514.05,734.407,1859.3
394.309,3548.2,736.951,1819.6
396.957,3529.1,739.495,1723.95
399.604,3572.5,742.038,1570.0
402.25,3600.6,744.58,1447.45
404.896,3635.95,747.122,1366.35
407.541,3677.2,749.662,1332.05
410.185,3695.85,752.202,1314.4
412.828,3679.8,754.741,1309.1
415.471,3677.3,757.279,1326.4
418.112,3679.15,759.817,1337.25
420.753,3660.35,762.354,1355.1
423.393,3627.5,764.89,1400.3
426.032,3606.05,767.425,1451.15
428.67,3623.3,769.96,1539.15
431.308,3632.55,772.493,1685.15
433.945,3624.15,775.026,1941.8
436.581,3627.85,777.559,2568.05
439.216,3625.0,780.09,4081.1
441.85,3595.65,782.621,8174.55
444.483,3609.25,785.151,18738.7
447.116,3605.15,787.68,23261.75
449.748,3614.0,790.208,23235.3
452.379,3558.8,792.736,22100.1
455.009,3583.5,795.263,17319.95
457.639,3613.3,797.789,7701.85
460.267,3649.05,800.314,3780.95
462.895,3743.85,802.839,2919.7
465.522,3899.3,805.363,2731.45
468.149,3966.3,807.886,2753.95
470.774,3888.15,810.408,2850.55
473.399,3818.0,812.93,2877.75
476.022,3674.45,815.451,2810.7
478.645,3490.6,817.971,2612.95
481.268,3405.75,820.49,2334.3
483.889,3384.8,823.009,2077.3
486.51,3367.1,825.526,1869.7
489.13,3411.05,828.044,1737.9
491.749,3409.5,830.56,1690.05
494.367,3399.0,833.075,1711.65
496.984,3375.1,835.59,1721.2
499.601,3268.25,838.104,1785.1
502.217,3183.45,840.617,1856.0
504.832,3070.9,843.13,1943.65
507.446,2988.8,845.642,1948.0
510.059,2985.55,848.153,1910.0
512.672,3142.2,850.663,1789.2
515.284,3531.75,853.172,1652.9
517.895,4682.8,855.681,1528.35
520.505,7818.0,858.189,1419.45
523.114,9774.55,860.696,1340.45
525.723,9983.3,863.203,1293.25
528.331,9556.1,865.709,1264.35
530.938,8151.05,868.214,1241.65
533.544,4969.85,870.718,1220.8
536.149,3117.3,873.221,1202.0
538.754,2512.1,875.724,1196.15
541.358,2206.45,878.226,1203.35
543.961,1983.9,880.727,1209.4
546.563,1850.7,883.228,1212.85
549.165,1771.3,885.728,1211.7
551.765,1717.35,888.227,1242.2
554.365,1645.95,890.725,1300.8
556.964,1613.0,893.222,1376.45
559.563,1574.25,895.719,1465.85
562.16,1544.05,898.215,1485.55
564.757,1509.25,900.71,1484.6
567.353,1484.3,903.205,1446.8
569.948,1476.5,905.699,1359.8
572.542,1463.65,908.192,1279.9
575.136,1461.25,910.684,1233.25
577.728,1430.9,913.176,1202.75
580.32,1454.6,915.666,1181.55
582.912,1461.1,918.156,1181.75
585.502,1440.15,920.646,1151.2
588.092,1470.95,923.134,1167.8
590.68,1478.8,925.622,1155.25
593.268,1500.85,928.109,1146.75
595.856,1534.2,930.595,1182.3
598.442,1560.8,933.081,1173.25
601.028,1622.45,935.566,1176.65
603.613,1673.55,938.05,1185.35
606.197,1746.0,940.533,1170.5
608.78,1845.2,943.016,1172.95
611.362,2010.8,945.498,1175.3
613.944,2261.3,947.979,1175.45
616.525,2670.95,950.459,1181.25
619.105,3395.6,952.939,1203.8
621.685,4263.05,955.418,1232.05
624.263,4895.1,957.896,1245.9
626.841,5014.15,960.374,1289.75
629.418,4710.4,962.85,1323.95
631.994,4056.4,965.326,1413.4
634.57,3152.4,967.802,1483.25
637.145,2462.55,970.276,1570.95
639.718,2001.2,972.75,1624.25
642.292,1732.35,975.223,1689.6
644.864,1578.15,977.695,1734.95
647.436,1463.1,980.167,1773.75
650.006,1400.05,982.638,1818.6
652.576,1338.1,985.108,1961.6
655.146,1314.6,987.577,2313.95
657.714,1273.5,990.046,2877.9
660.282,1257.35,992.513,3384.3
662.849,1239.9,994.981,4002.5
665.415,1233.45,997.447,5604.35
667.98,1204.35,999.913,14243.5
670.545,1195.15,1002.378,34085.1
673.108,1195.7,1004.842,37948.65
675.671,1211.75,1007.305,37871.0
678.234,1198.2,1009.768,35984.75
680.795,1194.5,1012.23,25176.6
683.356,1201.4,1014.691,8091.05
685.916,1201.05,1017.152,3762.5
688.475,1202.35,1019.612,2841.0
691.033,1223.75,1022.071,2630.25
693.591,1233.15,1024.529,3053.1
696.147,1240.0,1026.987,5701.5
698.703,1253.55,1029.444,11033.85
701.259,1236.8,1031.9,11889.35
703.813,1250.35,1034.355,11805.1
706.367,1236.45,1036.81,11132.35
708.92,1233.85,1039.264,7859.95
711.472,1239.3,1041.717,3350.3
714.023,1255.7,1044.17,2176.0
716.574,1246.4,1046.622,1884.65
719.124,1269.55,1049.073,1737.75
721.673,1333.0,1051.523,1635.85
724.221,1416.55,1053.973,1565.25
726.769,1539.05,1056.422,1506.25
729.316,1693.8,1058.87,1469.95
731.862,1817.15,1061.317,1455.9
734.407,1859.3,1063.764,1422.85
736.951,1819.6,1066.21,1416.4
739.495,1723.95,1068.655,1412.75
742.038,1570.0,1071.1,1401.45
744.58,1447.45,1073.544,1418.2
747.122,1366.35,1075.987,1439.95
749.662,1332.05,1078.429,1454.95
752.202,1314.4,1080.871,1490.45
754.741,1309.1,1083.312,1514.8
757.279,1326.4,1085.752,1491.5
759.817,1337.25,1088.191,1457.85
762.354,1355.1,1090.63,1416.75
764.89,1400.3,1093.068,1355.1
767.425,1451.15,1095.505,1306.45
769.96,1539.15,1097.942,1287.8
772.493,1685.15,1100.378,1264.6
775.026,1941.8,1102.813,1252.35
777.559,2568.05,1105.248,1261.15
780.09,4081.1,1107.681,1252.8
782.621,8174.55,1110.114,1238.35
785.151,18738.7,1112.547,1256.05
787.68,23261.75,1114.978,1218.65
790.208,23235.3,1117.409,1218.55
792.736,22100.1,1119.839,1215.0
795.263,17319.95,1122.269,1233.75
797.789,7701.85,1124.697,1236.45
800.314,3780.95,1127.125,1248.5
802.839,2919.7,1129.552,1287.05
805.363,2731.45,1131.979,1308.35
807.886,2753.95,1134.405,1360.3
810.408,2850.55,1136.83,1399.85
812.93,2877.75,1139.254,1482.5
815.451,2810.7,1141.678,1573.15
817.971,2612.95,1144.101,1672.5
820.49,2334.3,1146.523,1853.2
823.009,2077.3,1148.945,2130.25
825.526,1869.7,1151.366,2639.8
828.044,1737.9,1153.786,3278.35
830.56,1690.05,1156.205,3786.15
833.075,1711.65,1158.624,4012.3
835.59,1721.2,1161.042,3941.7
838.104,1785.1,1163.459,3622.25
840.617,1856.0,1165.876,3117.3
843.13,1943.65,1168.291,2708.85
845.642,1948.0,1170.707,2531.05
848.153,1910.0,1173.121,2601.4
850.663,1789.2,1175.535,2949.75
853.172,1652.9,1177.948,3386.15
855.681,1528.35,1180.36,3626.3
858.189,1419.45,1182.772,3688.85
860.696,1340.45,1185.182,3544.65
863.203,1293.25,1187.593,3158.2
865.709,1264.35,1190.002,2717.1
868.214,1241.65,1192.411,2439.1
870.718,1220.8,1194.819,2320.15
873.221,1202.0,1197.226,2328.9
875.724,1196.15,1199.633,2457.6
878.226,1203.35,1202.039,2799.4
880.727,1209.4,1204.444,3832.3
883.228,1212.85,1206.848,6577.05
885.728,1211.7,1209.252,10162.4
888.227,1242.2,1211.655,11286.0
890.725,1300.8,1214.058,11075.5
893.222,1376.45,1216.459,9858.75
895.719,1465.85,1218.86,6871.85
898.215,1485.55,1221.261,3542.45
900.71,1484.6,1223.66,2259.05
903.205,1446.8,1226.059,1835.9
905.699,1359.8,1228.457,1629.7
908.192,1279.9,1230.855,1530.95
910.684,1233.25,1233.251,1465.0
913.176,1202.75,1235.647,1415.6
915.666,1181.55,1238.043,1406.8
918.156,1181.75,1240.437,1378.75
920.646,1151.2,1242.831,1406.1
923.134,1167.8,1245.225,1412.5
925.622,1155.25,1247.617,1415.2
928.109,1146.75,1250.009,1397.4
930.595,1182.3,1252.4,1379.35
933.081,1173.25,1254.79,1345.95
935.566,1176.65,1257.18,1305.8
938.05,1185.35,1259.569,1284.9
940.533,1170.5,1261.958,1244.8
943.016,1172.95,1264.345,1220.6
945.498,1175.3,1266.732,1226.1
947.979,1175.45,1269.118,1226.0
950.459,1181.25,1271.504,1234.15
952.939,1203.8,1273.889,1238.7
955.418,1232.05,1276.273,1243.65
957.896,1245.9,1278.656,1233.35
960.374,1289.75,1281.039,1249.1
962.85,1323.95,1283.421,1247.5
965.326,1413.4,1285.802,1245.05
967.802,1483.25,1288.183,1235.6
970.276,1570.95,1290.563,1246.5
972.75,1624.25,1292.942,1233.3
975.223,1689.6,1295.321,1248.7
977.695,1734.95,1297.699,1262.5
980.167,1773.75,1300.076,1266.9
982.638,1818.6,1302.452,1299.9
985.108,1961.6,1304.828,1343.75
987.577,2313.95,1307.203,1396.45
990.046,2877.9,1309.578,1444.9
992.513,3384.3,1311.951,1502.45
994.981,4002.5,1314.324,1528.3
997.447,5604.35,1316.697,1515.05
999.913,14243.5,1319.068,1522.9
1002.378,34085.1,1321.439,1486.85
1004.842,37948.65,1323.81,1466.6
1007.305,37871.0,1326.179,1502.85
1009.768,35984.75,1328.548,1563.1
1012.23,25176.6,1330.916,1642.1
1014.691,8091.05,1333.284,1676.0
1017.152,3762.5,1335.65,1664.05
1019.612,2841.0,1338.017,1635.55
1022.071,2630.25,1340.382,1550.25
1024.529,3053.1,1342.747,1507.85
1026.987,5701.5,1345.111,1457.1
1029.444,11033.85,1347.474,1431.2
1031.9,11889.35,1349.837,1442.55
1034.355,11805.1,1352.199,1453.75
1036.81,11132.35,1354.56,1478.75
1039.264,7859.95,1356.92,1524.95
1041.717,3350.3,1359.28,1579.05
1044.17,2176.0,1361.64,1618.15
1046.622,1884.65,1363.998,1730.4
1049.073,1737.75,1366.356,1838.1
1051.523,1635.85,1368.713,2033.9
1053.973,1565.25,1371.07,2282.95
1056.422,1506.25,1373.425,2820.05
1058.87,1469.95,1375.78,3725.85
1061.317,1455.9,1378.135,4620.25
1063.764,1422.85,1380.489,5016.2
1066.21,1416.4,1382.842,5020.5
1068.655,1412.75,1385.194,4608.45
1071.1,1401.45,1387.546,3783.7
1073.544,1418.2,1389.897,2925.65
1075.987,1439.95,1392.247,2404.2
1078.429,1454.95,1394.597,2139.0
1080.871,1490.45,1396.946,1953.5
1083.312,1514.8,1399.294,1856.95
1085.752,1491.5,1401.641,1724.05
1088.191,1457.85,1403.988,1702.4
1090.63,1416.75,1406.335,1704.45
1093.068,1355.1,1408.68,1685.4
1095.505,1306.45,1411.025,1697.9
1097.942,1287.8,1413.369,1740.1
1100.378,1264.6,1415.713,1756.75
1102.813,1252.35,1418.055,1820.85
1105.248,1261.15,1420.398,1845.35
1107.681,1252.8,1422.739,1906.6
1110.114,1238.35,1425.08,1985.75
1112.547,1256.05,1427.42,2078.05
1114.978,1218.65,1429.759,2160.6
1117.409,1218.55,1432.098,2236.15
1119.839,1215.0,1434.436,2316.2
1122.269,1233.75,1436.773,2391.35
1124.697,1236.45,1439.11,2438.3
1127.125,1248.5,1441.446,2475.25
1129.552,1287.05,1443.781,2447.8
1131.979,1308.35,1446.116,2437.7
1134.405,1360.3,1448.45,2393.2
1136.83,1399.85,1450.783,2348.8
1139.254,1482.5,1453.116,2286.35
1141.678,1573.15,1455.448,2236.0
1144.101,1672.5,1457.779,2186.45
1146.523,1853.2,1460.11,2134.0
1148.945,2130.25,1462.44,2089.0
1151.366,2639.8,1464.769,2050.85
1153.786,3278.35,1467.098,2015.7
1156.205,3786.15,1469.426,1952.0
1158.624,4012.3,1471.753,1920.3
1161.042,3941.7,1474.08,1882.2
1163.459,3622.25,1476.405,1855.1
1165.876,3117.3,1478.731,1811.8
1168.291,2708.85,1481.055,1790.7
1170.707,2531.05,1483.379,1780.2
1173.121,2601.4,1485.702,1740.6
1175.535,2949.75,1488.025,1752.1
1177.948,3386.15,1490.347,1783.1
1180.36,3626.3,1492.668,1847.2
1182.772,3688.85,1494.989,1901.2
1185.182,3544.65,1497.308,1890.4
1187.593,3158.2,1499.628,1887.65
1190.002,2717.1,1501.946,1849.75
1192.411,2439.1,1504.264,1759.55
1194.819,2320.15,1506.581,1694.9
1197.226,2328.9,1508.898,1628.25
1199.633,2457.6,1511.213,1614.5
1202.039,2799.4,1513.529,1591.35
1204.444,3832.3,1515.843,1549.55
1206.848,6577.05,1518.157,1553.3
1209.252,10162.4,1520.47,1544.65
1211.655,11286.0,1522.783,1550.65
1214.058,11075.5,1525.095,1541.1
1216.459,9858.75,1527.406,1525.55
1218.86,6871.85,1529.716,1536.7
1221.261,3542.45,1532.026,1518.15
1223.66,2259.05,1534.335,1524.2
1226.059,1835.9,1536.644,1518.55
1228.457,1629.7,1538.952,1527.2
1230.855,1530.95,1541.259,1523.4
1233.251,1465.0,1543.565,1524.2
1235.647,1415.6,1545.871,1531.85
1238.043,1406.8,1548.176,1542.2
1240.437,1378.75,1550.481,1566.6
1242.831,1406.1,1552.785,1591.85
1245.225,1412.5,1555.088,1613.7
1247.617,1415.2,1557.39,1630.5
1250.009,1397.4,1559.692,1681.4
1252.4,1379.35,1561.993,1690.45
1254.79,1345.95,1564.294,1777.85
1257.18,1305.8,1566.594,1846.05
1259.569,1284.9,1568.893,1948.95
1261.958,1244.8,1571.192,2085.9
1264.345,1220.6,1573.49,2312.7
1266.732,1226.1,1575.787,2579.25
1269.118,1226.0,1578.083,2940.1
1271.504,1234.15,1580.379,3547.25
1273.889,1238.7,1582.675,4274.7
1276.273,1243.65,1584.969,4876.45
1278.656,1233.35,1587.263,5063.35
1281.039,1249.1,1589.556,5003.65
1283.421,1247.5,1591.849,4721.7
1285.802,1245.05,1594.141,4339.35
1288.183,1235.6,1596.432,4292.05
1290.563,1246.5,1598.723,4844.3
1292.942,1233.3,nan,nan
1295.321,1248.7,nan,nan
1297.699,1262.5,nan,nan
1300.076,1266.9,nan,nan
1302.452,1299.9,nan,nan
1304.828,1343.75,nan,nan
1307.203,1396.45,nan,nan
1309.578,1444.9,nan,nan
1311.951,1502.45,nan,nan
1314.324,1528.3,nan,nan
1316.697,1515.05,nan,nan
1319.068,1522.9,nan,nan
1321.439,1486.85,nan,nan
1323.81,1466.6,nan,nan
1326.179,1502.85,nan,nan
1328.548,1563.1,nan,nan
1330.916,1642.1,nan,nan
1333.284,1676.0,nan,nan
1335.65,1664.05,nan,nan
1338.017,1635.55,nan,nan
1340.382,1550.25,nan,nan
1342.747,1507.85,nan,nan
1345.111,1457.1,nan,nan
1347.474,1431.2,nan,nan
1349.837,1442.55,nan,nan
1352.199,1453.75,nan,nan
1354.56,1478.75,nan,nan
1356.92,1524.95,nan,nan
1359.28,1579.05,nan,nan
1361.64,1618.15,nan,nan
1363.998,1730.4,nan,nan
1366.356,1838.1,nan,nan
1368.713,2033.9,nan,nan
1371.07,2282.95,nan,nan
1373.425,2820.05,nan,nan
1375.78,3725.85,nan,nan
1378.135,4620.25,nan,nan
1380.489,5016.2,nan,nan
1382.842,5020.5,nan,nan
1385.194,4608.45,nan,nan
1387.546,3783.7,nan,nan
1389.897,2925.65,nan,nan
1392.247,2404.2,nan,nan
1394.597,2139.0,nan,nan
1396.946,1953.5,nan,nan
1399.294,1856.95,nan,nan
1401.641,1724.05,nan,nan
1403.988,1702.4,nan,nan
1406.335,1704.45,nan,nan
1408.68,1685.4,nan,nan
1411.025,1697.9,nan,nan
1413.369,1740.1,nan,nan
1415.713,1756.75,nan,nan
1418.055,1820.85,nan,nan
1420.398,1845.35,nan,nan
1422.739,1906.6,nan,nan
1425.08,1985.75,nan,nan
1427.42,2078.05,nan,nan
1429.759,2160.6,nan,nan
1432.098,2236.15,nan,nan
1434.436,2316.2,nan,nan
1436.773,2391.35,nan,nan
1439.11,2438.3,nan,nan
1441.446,2475.25,nan,nan
1443.781,2447.8,nan,nan
1446.116,2437.7,nan,nan
1448.45,2393.2,nan,nan
1450.783,2348.8,nan,nan
1453.116,2286.35,nan,nan
1455.448,2236.0,nan,nan
1457.779,2186.45,nan,nan
1460.11,2134.0,nan,nan
1462.44,2089.0,nan,nan
1464.769,2050.85,nan,nan
1467.098,2015.7,nan,nan
1469.426,1952.0,nan,nan
1471.753,1920.3,nan,nan
1474.08,1882.2,nan,nan
1476.405,1855.1,nan,nan
1478.731,1811.8,nan,nan
1481.055,1790.7,nan,nan
1483.379,1780.2,nan,nan
1485.702,1740.6,nan,nan
1488.025,1752.1,nan,nan
1490.347,1783.1,nan,nan
1492.668,1847.2,nan,nan
1494.989,1901.2,nan,nan
1497.308,1890.4,nan,nan
1499.628,1887.65,nan,nan
1501.946,1849.75,nan,nan
1504.264,1759.55,nan,nan
1506.581,1694.9,nan,nan
1508.898,1628.25,nan,nan
1511.213,1614.5,nan,nan
1513.529,1591.35,nan,nan
1515.843,1549.55,nan,nan
1518.157,1553.3,nan,nan
1520.47,1544.65,nan,nan
1522.783,1550.65,nan,nan
1525.095,1541.1,nan,nan
1527.406,1525.55,nan,nan
1529.716,1536.7,nan,nan
1532.026,1518.15,nan,nan
1534.335,1524.2,nan,nan
1536.644,1518.55,nan,nan
1538.952,1527.2,nan,nan
1541.259,1523.4,nan,nan
1543.565,1524.2,nan,nan
1545.871,1531.85,nan,nan
1548.176,1542.2,nan,nan
1550.481,1566.6,nan,nan
1552.785,1591.85,nan,nan
1555.088,1613.7,nan,nan
1557.39,1630.5,nan,nan
1559.692,1681.4,nan,nan
1561.993,1690.45,nan,nan
1564.294,1777.85,nan,nan
1566.594,1846.05,nan,nan
1568.893,1948.95,nan,nan
1571.192,2085.9,nan,nan
1573.49,2312.7,nan,nan
1575.787,2579.25,nan,nan
1578.083,2940.1,nan,nan
1580.379,3547.25,nan,nan
1582.675,4274.7,nan,nan
1584.969,4876.45,nan,nan
1587.263,5063.35,nan,nan
1589.556,5003.65,nan,nan
1591.849,4721.7,nan,nan
1594.141,4339.35,nan,nan
1596.432,4292.05,nan,nan
1598.723,4844.3,nan,nan
1601.013,5996.45,nan,nan
1603.302,7152.45,nan,nan
1605.591,7746.85,nan,nan
1607.879,7607.25,nan,nan
1610.166,6915.4,nan,nan
1612.453,5646.35,nan,nan
1614.739,4393.45,nan,nan
1617.024,3561.05,nan,nan
1619.309,3116.85,nan,nan
1621.593,2831.7,nan,nan
1623.877,2651.05,nan,nan
1626.16,2492.1,nan,nan
1628.442,2328.0,nan,nan
1630.723,2154.95,nan,nan
1633.004,1959.95,nan,nan
1635.284,1834.3,nan,nan
1637.564,1696.3,nan,nan
1639.842,1608.0,nan,nan
1642.121,1554.55,nan,nan
1644.398,1492.8,nan,nan
1646.675,1467.15,nan,nan
1648.951,1414.55,nan,nan
1651.227,1396.1,nan,nan
1653.502,1367.95,nan,nan
1655.776,1333.9,nan,nan
1658.05,1327.5,nan,nan
1660.323,1316.3,nan,nan
1662.595,1284.75,nan,nan
1664.867,1275.5,nan,nan
1667.138,1271.8,nan,nan
1669.408,1249.2,nan,nan
1671.678,1252.2,nan,nan
1673.947,1281.25,nan,nan
1676.215,1277.9,nan,nan
1678.483,1297.1,nan,nan
1680.75,1295.3,nan,nan
1683.017,1285.4,nan,nan
1685.283,1291.15,nan,nan
1687.548,1278.2,nan,nan
1689.813,1245.15,nan,nan
1692.076,1231.5,nan,nan
1694.34,1218.35,nan,nan
1696.602,1209.55,nan,nan
1698.864,1186.4,nan,nan
1701.126,1188.55,nan,nan
1703.386,1165.65,nan,nan
1705.646,1158.15,nan,nan
1707.906,1160.15,nan,nan
1710.165,1149.0,nan,nan
1712.423,1145.0,nan,nan
1714.68,1144.55,nan,nan
1716.937,1145.35,nan,nan
1719.193,1130.8,nan,nan
1721.449,1125.85,nan,nan
1723.703,1148.05,nan,nan
1725.958,1136.3,nan,nan
1728.211,1139.5,nan,nan
1730.464,1136.35,nan,nan
1732.717,1149.25,nan,nan
1734.968,1134.75,nan,nan
1737.219,1129.4,nan,nan
1739.47,1123.85,nan,nan
1741.719,1125.75,nan,nan
1743.969,1111.45,nan,nan
1746.217,1112.4,nan,nan
1748.465,1110.6,nan,nan
1750.712,1103.2,nan,nan
1752.959,1097.15,nan,nan
1755.205,1097.05,nan,nan
1757.45,1099.95,nan,nan
1759.695,1102.95,nan,nan
1761.939,1091.9,nan,nan
1764.182,1108.0,nan,nan
1766.425,1105.0,nan,nan
1768.667,1112.6,nan,nan
1770.908,1108.75,nan,nan
1773.149,1116.3,nan,nan
1775.389,1105.8,nan,nan
1777.629,1116.05,nan,nan
1779.868,1127.55,nan,nan
1782.106,1137.3,nan,nan
1784.343,1147.5,nan,nan
1786.58,1174.05,nan,nan
1788.817,1172.0,nan,nan
1791.053,1181.85,nan,nan
1793.288,1169.75,nan,nan
1795.522,1151.9,nan,nan
1797.756,1121.4,nan,nan
1799.989,1116.1,nan,nan
1802.222,1100.35,nan,nan
1804.454,1104.95,nan,nan
1806.685,1090.75,nan,nan
1808.916,1089.45,nan,nan
1811.146,1092.9,nan,nan
1813.375,1079.65,nan,nan
1815.604,1092.15,nan,nan
1817.832,1076.6,nan,nan
1820.059,1066.8,nan,nan
1822.286,1080.05,nan,nan
1824.512,1065.25,nan,nan
1826.738,1080.65,nan,nan
1828.963,1064.6,nan,nan
1831.187,1062.6,nan,nan
1833.411,1065.15,nan,nan
1835.634,1059.8,nan,nan
1837.857,1057.1,nan,nan
1840.079,1067.2,nan,nan
1842.3,1067.3,nan,nan
1844.52,1062.2,nan,nan
1846.74,1063.75,nan,nan
1848.96,1067.1,nan,nan
1851.178,1064.35,nan,nan
1853.396,1053.55,nan,nan
1855.614,1063.8,nan,nan
1857.831,1055.95,nan,nan
1860.047,1051.75,nan,nan
1862.262,1055.95,nan,nan
1864.477,1052.25,nan,nan
1866.692,1057.3,nan,nan
1868.905,1055.2,nan,nan
1871.118,1052.8,nan,nan
1873.331,1050.85,nan,nan
1875.542,1053.0,nan,nan
1877.754,1053.5,nan,nan
1879.964,1043.25,nan,nan
1882.174,1055.85,nan,nan
1884.383,1038.65,nan,nan
1886.592,1047.95,nan,nan
1888.8,1045.45,nan,nan
1891.008,1049.8,nan,nan
1893.214,1051.7,nan,nan
1895.421,1048.15,nan,nan
1897.626,1054.35,nan,nan
1899.831,1047.0,nan,nan
1902.035,1055.05,nan,nan
1904.239,1047.9,nan,nan
1906.442,1047.5,nan,nan
1908.645,1047.9,nan,nan
1910.847,1043.65,nan,nan
1913.048,1032.85,nan,nan
1915.248,1050.85,nan,nan
1917.448,1054.6,nan,nan
1919.648,1059.75,nan,nan
1921.846,1063.2,nan,nan
1924.045,1082.25,nan,nan
1926.242,1096.7,nan,nan
1928.439,1095.25,nan,nan
1930.635,1099.75,nan,nan
1932.831,1077.75,nan,nan
1935.026,1073.95,nan,nan
1937.22,1058.2,nan,nan
1939.414,1061.95,nan,nan
1941.607,1046.7,nan,nan
1943.8,1043.5,nan,nan
1945.992,1043.75,nan,nan
1948.183,1051.05,nan,nan
1950.374,1048.6,nan,nan
1952.564,1047.45,nan,nan
1954.753,1074.8,nan,nan
1956.942,1073.65,nan,nan
1959.131,1074.05,nan,nan
1961.318,1062.85,nan,nan
1963.505,1068.35,nan,nan
1965.692,1054.15,nan,nan
1967.877,1055.9,nan,nan
1970.063,1052.05,nan,nan
1972.247,1035.3,nan,nan
1974.431,1021.4,nan,nan
1976.614,1033.3,nan,nan
1978.797,1021.65,nan,nan
1980.979,1025.2,nan,nan
1983.161,1020.2,nan,nan
1985.342,1031.65,nan,nan
1987.522,1039.8,nan,nan
1989.702,1056.65,nan,nan
1991.881,1061.35,nan,nan
1994.059,1056.65,nan,nan
1996.237,1044.9,nan,nan
1998.414,1044.0,nan,nan
2000.591,1033.6,nan,nan
2002.767,1020.05,nan,nan
2004.942,1017.85,nan,nan
2007.117,1010.0,nan,nan
2009.291,1009.15,nan,nan
2011.465,1010.45,nan,nan
2013.638,1007.9,nan,nan
2015.81,999.2,nan,nan
2017.982,996.7,nan,nan
2020.153,1002.4,nan,nan
2022.323,992.65,nan,nan
2024.493,996.85,nan,nan
2026.663,1000.05,nan,nan
2028.831,990.8,nan,nan
2030.999,998.25,nan,nan
2033.167,1001.85,nan,nan
2035.334,1004.35,nan,nan
2037.5,986.35,nan,nan
2039.666,990.8,nan,nan
2041.831,983.2,nan,nan
2043.995,988.55,nan,nan
2046.159,976.35,nan,nan
2048.322,981.15,nan,nan
2050.485,987.45,nan,nan
2052.647,989.8,nan,nan
2054.808,995.05,nan,nan
2056.969,979.7,nan,nan
2059.13,991.25,nan,nan
2061.289,987.6,nan,nan
2063.448,967.7,nan,nan
2065.607,977.5,nan,nan
2067.764,974.15,nan,nan
2069.922,971.4,nan,nan
2072.078,973.9,nan,nan
2074.234,970.95,nan,nan
2076.39,984.5,nan,nan
2078.545,973.2,nan,nan
2080.699,976.85,nan,nan
2082.852,976.65,nan,nan
2085.005,975.75,nan,nan
2087.158,975.5,nan,nan
2089.31,968.25,nan,nan
2091.461,959.15,nan,nan
2093.611,970.45,nan,nan
2095.761,962.45,nan,nan
2097.911,969.45,nan,nan
2100.06,972.3,nan,nan
2102.208,956.45,nan,nan
2104.355,962.75,nan,nan
2106.502,960.65,nan,nan
2108.649,961.2,nan,nan
2110.795,967.0,nan,nan
2112.94,962.8,nan,nan
2115.085,962.5,nan,nan
2117.229,980.4,nan,nan
2119.372,977.9,nan,nan
2121.515,977.15,nan,nan
2123.657,977.75,nan,nan
2125.799,980.5,nan,nan
2127.94,977.35,nan,nan
2130.08,980.2,nan,nan
2132.22,973.95,nan,nan
2134.359,959.9,nan,nan
2136.498,961.4,nan,nan
2138.636,964.65,nan,nan
2140.774,967.2,nan,nan
2142.911,951.5,nan,nan
2145.047,968.25,nan,nan
2147.183,957.85,nan,nan
2149.318,955.45,nan,nan
2151.452,960.8,nan,nan
2153.586,949.95,nan,nan
2155.719,952.2,nan,nan
2157.852,963.85,nan,nan
2159.984,959.15,nan,nan
2162.116,960.75,nan,nan
2164.247,970.3,nan,nan
2166.377,956.3,nan,nan
2168.507,959.8,nan,nan
2170.636,949.65,nan,nan
2172.765,950.35,nan,nan
2174.893,962.55,nan,nan
2177.02,953.15,nan,nan
2179.147,947.55,nan,nan
2181.273,946.3,nan,nan
2183.399,947.65,nan,nan
2185.524,950.65,nan,nan
2187.648,948.75,nan,nan
2189.772,943.35,nan,nan
2191.896,958.2,nan,nan
2194.018,944.45,nan,nan
2196.14,954.55,nan,nan
2198.262,971.25,nan,nan
2200.383,968.85,nan,nan
2202.503,965.95,nan,nan
2204.623,983.25,nan,nan
2206.742,984.35,nan,nan
2208.861,977.4,nan,nan
2210.979,976.95,nan,nan
2213.096,968.35,nan,nan
2215.213,964.15,nan,nan
2217.329,949.4,nan,nan
2219.445,946.15,nan,nan
2221.56,946.2,nan,nan
2223.675,937.25,nan,nan
2225.789,967.05,nan,nan
2227.902,945.4,nan,nan
2230.015,949.6,nan,nan
2232.127,953.25,nan,nan
2234.238,958.7,nan,nan
2236.349,964.9,nan,nan
2238.46,972.3,nan,nan
2240.57,975.85,nan,nan
2242.679,961.5,nan,nan
2244.787,954.35,nan,nan
2246.896,965.75,nan,nan
2249.003,958.75,nan,nan
2251.11,955.8,nan,nan
2253.216,965.6,nan,nan
2255.322,965.1,nan,nan
2257.427,962.95,nan,nan
2259.532,965.25,nan,nan
2261.636,959.8,nan,nan
2263.739,946.05,nan,nan
2265.842,943.65,nan,nan
2267.944,952.45,nan,nan
2270.046,942.55,nan,nan
2272.147,938.5,nan,nan
2274.248,938.3,nan,nan
2276.348,937.6,nan,nan
2278.447,945.9,nan,nan
2280.546,949.9,nan,nan
2282.644,932.5,nan,nan
2284.742,938.4,nan,nan
2286.839,933.3,nan,nan
2288.935,931.35,nan,nan
2291.031,932.25,nan,nan
2293.127,933.5,nan,nan
2295.221,941.1,nan,nan
2297.316,946.25,nan,nan
2299.409,939.0,nan,nan
2301.502,945.9,nan,nan
2303.595,948.6,nan,nan
2305.686,957.6,nan,nan
2307.778,982.7,nan,nan
2309.869,997.2,nan,nan
2311.959,1012.05,nan,nan
2314.048,1009.35,nan,nan
2316.137,986.35,nan,nan
2318.226,977.55,nan,nan
2320.314,972.8,nan,nan
2322.401,960.65,nan,nan
2324.488,959.9,nan,nan
2326.574,944.95,nan,nan
2328.659,956.85,nan,nan
2330.744,948.4,nan,nan
2332.829,953.9,nan,nan
2334.912,952.85,nan,nan
2336.996,951.45,nan,nan
2339.078,953.0,nan,nan
2341.161,945.8,nan,nan
2343.242,943.5,nan,nan
2345.323,957.75,nan,nan
2347.404,949.35,nan,nan
2349.483,961.25,nan,nan
2351.563,966.35,nan,nan
2353.641,969.75,nan,nan
2355.719,979.6,nan,nan
2357.797,973.6,nan,nan
2359.874,977.7,nan,nan
2361.95,970.55,nan,nan
2364.026,954.4,nan,nan
2366.102,964.25,nan,nan
2368.176,961.3,nan,nan
2370.25,952.2,nan,nan
2372.324,971.2,nan,nan
2374.397,967.45,nan,nan
2376.47,961.1,nan,nan
2378.541,973.3,nan,nan
2380.613,959.4,nan,nan
2382.683,983.5,nan,nan
2384.754,1000.1,nan,nan
2386.823,1017.75,nan,nan
2388.892,1003.85,nan,nan
2390.961,996.9,nan,nan
2393.029,994.9,nan,nan
2395.096,999.45,nan,nan
2397.163,985.45,nan,nan
2399.229,986.55,nan,nan
2401.295,996.35,nan,nan
2403.36,991.15,nan,nan
2405.424,1000.95,nan,nan
2407.488,1014.95,nan,nan
2409.552,1031.3,nan,nan
2411.614,1029.5,nan,nan
2413.677,1060.0,nan,nan
2415.738,1054.75,nan,nan
2417.8,1050.65,nan,nan
2419.86,1055.65,nan,nan
2421.92,1051.95,nan,nan
2423.98,1053.75,nan,nan
2426.038,1073.55,nan,nan
2428.097,1093.85,nan,nan
2430.155,1106.15,nan,nan
2432.212,1114.65,nan,nan
2434.268,1105.8,nan,nan
2436.324,1071.9,nan,nan
2438.38,1043.1,nan,nan
2440.435,1007.75,nan,nan
2442.489,978.5,nan,nan
2444.543,973.15,nan,nan
2446.596,972.85,nan,nan
2448.649,962.9,nan,nan
2450.701,951.0,nan,nan
2452.753,964.4,nan,nan
2454.804,963.7,nan,nan
2456.854,981.65,nan,nan
2458.904,983.9,nan,nan
2460.954,986.05,nan,nan
2463.003,999.85,nan,nan
2465.051,1007.0,nan,nan
2467.099,996.7,nan,nan
2469.146,1007.35,nan,nan
2471.192,989.3,nan,nan
2473.238,977.55,nan,nan
2475.284,972.0,nan,nan
2477.329,977.3,nan,nan
2479.373,980.1,nan,nan
2481.417,972.8,nan,nan
2483.46,988.9,nan,nan
2485.503,982.65,nan,nan
2487.545,976.85,nan,nan
2489.586,980.6,nan,nan
2491.627,971.9,nan,nan
2493.668,949.35,nan,nan
2495.708,961.1,nan,nan
2497.747,947.25,nan,nan
2499.786,957.4,nan,nan
2501.824,943.7,nan,nan
2503.862,947.8,nan,nan
2505.899,962.85,nan,nan
2507.936,953.65,nan,nan
2509.972,963.3,nan,nan
2512.007,967.85,nan,nan
2514.042,965.35,nan,nan
2516.076,964.2,nan,nan
2518.11,976.75,nan,nan
2520.143,976.7,nan,nan
2522.176,983.55,nan,nan
2524.208,999.05,nan,nan
2526.24,1009.6,nan,nan
2528.271,1009.75,nan,nan
2530.301,1019.15,nan,nan
2532.331,1033.35,nan,nan
2534.361,1051.4,nan,nan
2536.39,1069.3,nan,nan
2538.418,1082.55,nan,nan
2540.446,1107.55,nan,nan
2542.473,1139.8,nan,nan
2544.5,1173.05,nan,nan
2546.526,1209.85,nan,nan
2548.551,1240.7,nan,nan
2550.576,1257.15,nan,nan
2552.601,1247.75,nan,nan
2554.625,1239.6,nan,nan
2556.648,1201.65,nan,nan
2558.671,1177.9,nan,nan
2560.693,1145.7,nan,nan
2562.715,1120.05,nan,nan
2564.736,1136.9,nan,nan
2566.757,1139.25,nan,nan
2568.777,1137.75,nan,nan
2570.796,1141.65,nan,nan
2572.815,1171.15,nan,nan
2574.834,1187.1,nan,nan
2576.852,1228.35,nan,nan
2578.869,1280.45,nan,nan
2580.886,1339.25,nan,nan
2582.902,1372.4,nan,nan
2584.918,1390.9,nan,nan
2586.933,1358.75,nan,nan
2588.948,1312.15,nan,nan
2590.962,1248.0,nan,nan
2592.975,1199.3,nan,nan
2594.988,1150.55,nan,nan
2597.001,1149.75,nan,nan
2599.013,1168.75,nan,nan
2601.024,1231.6,nan,nan
2603.035,1302.65,nan,nan
2605.045,1343.35,nan,nan
2607.055,1367.2,nan,nan
2609.064,1334.25,nan,nan
2611.073,1254.8,nan,nan
2613.081,1181.9,nan,nan
2615.088,1093.6,nan,nan
2617.095,1055.25,nan,nan
2619.102,1032.7,nan,nan
2621.108,1018.8,nan,nan
2623.113,1004.05,nan,nan
2625.118,987.6,nan,nan
2627.122,977.2,nan,nan
2629.126,964.1,nan,nan
2631.129,967.55,nan,nan
2633.132,968.15,nan,nan
2635.134,965.4,nan,nan
2637.136,960.55,nan,nan
2639.137,963.3,nan,nan
2641.137,966.35,nan,nan
2643.137,973.65,nan,nan
2645.137,963.05,nan,nan
2647.136,975.55,nan,nan
2649.134,978.7,nan,nan
2651.132,984.65,nan,nan
2653.129,1001.75,nan,nan
2655.126,1024.5,nan,nan
2657.122,1068.5,nan,nan
2659.118,1083.45,nan,nan
2661.113,1095.25,nan,nan
2663.108,1088.85,nan,nan
2665.102,1053.3,nan,nan
2667.096,1024.15,nan,nan
2669.089,995.9,nan,nan
2671.081,975.1,nan,nan
2673.073,950.8,nan,nan
2675.064,958.25,nan,nan
2677.055,951.1,nan,nan
2679.046,951.25,nan,nan
2681.035,953.4,nan,nan
2683.025,959.2,nan,nan
2685.013,963.65,nan,nan
2687.002,960.95,nan,nan
2688.989,964.05,nan,nan
2690.976,968.2,nan,nan
2692.963,985.6,nan,nan
2694.949,990.0,nan,nan
2696.935,1017.55,nan,nan
2698.92,1037.15,nan,nan
2700.904,1052.95,nan,nan
2702.888,1068.6,nan,nan
2704.872,1061.85,nan,nan
2706.854,1056.0,nan,nan
2708.837,1048.0,nan,nan
2710.819,1056.05,nan,nan
2712.8,1051.15,nan,nan
2714.781,1062.65,nan,nan
2716.761,1084.95,nan,nan
2718.74,1104.85,nan,nan
2720.72,1161.2,nan,nan
2722.698,1235.75,nan,nan
2724.676,1347.65,nan,nan
2726.654,1564.2,nan,nan
2728.631,1833.5,nan,nan
2730.607,2144.2,nan,nan
2732.583,2356.9,nan,nan
2734.559,2419.75,nan,nan
2736.534,2379.7,nan,nan
2738.508,2171.35,nan,nan
2740.482,1933.5,nan,nan
2742.455,1682.35,nan,nan
2744.428,1490.35,nan,nan
2746.4,1384.3,nan,nan
2748.372,1326.1,nan,nan
2750.343,1263.0,nan,nan
2752.314,1232.75,nan,nan
2754.284,1218.0,nan,nan
2756.254,1186.45,nan,nan
2758.223,1199.35,nan,nan
2760.192,1182.1,nan,nan
2762.16,1186.7,nan,nan
2764.127,1195.05,nan,nan
2766.094,1196.1,nan,nan
2768.061,1195.7,nan,nan
2770.027,1211.6,nan,nan
2771.992,1227.4,nan,nan
2773.957,1240.1,nan,nan
2775.921,1255.1,nan,nan
2777.885,1247.5,nan,nan
2779.849,1249.5,nan,nan
2781.811,1233.4,nan,nan
2783.774,1189.35,nan,nan
2785.736,1167.7,nan,nan
2787.697,1169.3,nan,nan
2789.657,1160.85,nan,nan
2791.618,1174.7,nan,nan
2793.577,1184.9,nan,nan
2795.537,1206.2,nan,nan
2797.495,1191.75,nan,nan
2799.453,1208.45,nan,nan
2801.411,1238.3,nan,nan
2803.368,1249.6,nan,nan
2805.324,1276.5,nan,nan
2807.28,1303.6,nan,nan
2809.236,1310.1,nan,nan
2811.191,1312.0,nan,nan
2813.145,1339.7,nan,nan
2815.099,1324.4,nan,nan
2817.053,1342.25,nan,nan
2819.006,1373.15,nan,nan
2820.958,1387.85,nan,nan
2822.91,1402.95,nan,nan
2824.861,1447.35,nan,nan
2826.812,1466.35,nan,nan
2828.762,1498.55,nan,nan
2830.712,1531.8,nan,nan
2832.661,1587.8,nan,nan
2834.61,1647.8,nan,nan
2836.558,1723.45,nan,nan
2838.506,1827.3,nan,nan
2840.453,1943.25,nan,nan
2842.4,2089.95,nan,nan
2844.346,2293.45,nan,nan
2846.292,2522.3,nan,nan
2848.237,2845.1,nan,nan
2850.181,3166.65,nan,nan
2852.125,3565.2,nan,nan
2854.069,3980.75,nan,nan
2856.012,4298.9,nan,nan
2857.955,4613.85,nan,nan
2859.897,4824.95,nan,nan
2861.838,5002.95,nan,nan
2863.779,5099.8,nan,nan
2865.72,5150.5,nan,nan
2867.659,5119.25,nan,nan
2869.599,5109.5,nan,nan
2871.538,5119.55,nan,nan
2873.476,5025.0,nan,nan
2875.414,4904.35,nan,nan
2877.352,4774.2,nan,nan
2879.288,4586.8,nan,nan
2881.225,4419.95,nan,nan
2883.161,4245.65,nan,nan
2885.096,4098.45,nan,nan
2887.031,4033.75,nan,nan
2888.965,3998.05,nan,nan
2890.899,4012.4,nan,nan
2892.832,4084.95,nan,nan
2894.765,4264.65,nan,nan
2896.697,4556.2,nan,nan
2898.629,4972.75,nan,nan
2900.56,5520.55,nan,nan
2902.491,6330.15,nan,nan
2904.421,7300.75,nan,nan
2906.351,8474.5,nan,nan
2908.28,9987.4,nan,nan
2910.209,11706.85,nan,nan
2912.137,13512.95,nan,nan
2914.064,15151.7,nan,nan
2915.991,16304.7,nan,nan
2917.918,16790.05,nan,nan
2919.844,16375.25,nan,nan
2921.77,15341.6,nan,nan
2923.695,13915.95,nan,nan
2925.619,12366.95,nan,nan
2927.544,10868.8,nan,nan
2929.467,9489.85,nan,nan
2931.39,8344.25,nan,nan
2933.313,7481.7,nan,nan
2935.235,6761.6,nan,nan
2937.156,6245.9,nan,nan
2939.077,5815.25,nan,nan
2940.998,5592.3,nan,nan
2942.918,5328.45,nan,nan
2944.837,5127.0,nan,nan
2946.756,4982.55,nan,nan
2948.675,4852.8,nan,nan
2950.593,4687.15,nan,nan
2952.51,4539.35,nan,nan
2954.427,4389.05,nan,nan
2956.344,4300.35,nan,nan
2958.26,4146.8,nan,nan
2960.175,4040.4,nan,nan
2962.09,3961.1,nan,nan
2964.005,3905.35,nan,nan
2965.919,3899.55,nan,nan
2967.832,3927.4,nan,nan
2969.745,4007.0,nan,nan
2971.657,4212.95,nan,nan
2973.569,4567.05,nan,nan
2975.481,5234.7,nan,nan
2977.392,5890.1,nan,nan
2979.302,6142.95,nan,nan
2981.212,6111.0,nan,nan
2983.121,5740.25,nan,nan
2985.03,5103.4,nan,nan
2986.939,4483.45,nan,nan
2988.847,4198.05,nan,nan
2990.754,4098.35,nan,nan
2992.661,4204.95,nan,nan
2994.567,4437.2,nan,nan
2996.473,4739.95,nan,nan
2998.379,5084.5,nan,nan
3000.283,5273.1,nan,nan
3002.188,5278.7,nan,nan
3004.092,5182.4,nan,nan
3005.995,4940.65,nan,nan
3007.898,4754.35,nan,nan
3009.8,4706.8,nan,nan
3011.702,4729.85,nan,nan
3013.604,4895.0,nan,nan
3015.504,5078.05,nan,nan
3017.405,5400.2,nan,nan
3019.305,5802.85,nan,nan
3021.204,6371.25,nan,nan
3023.103,7029.6,nan,nan
3025.001,7885.15,nan,nan
3026.899,8717.5,nan,nan
3028.797,9510.45,nan,nan
3030.694,10341.65,nan,nan
3032.59,10976.7,nan,nan
3034.486,11490.75,nan,nan
3036.381,11838.15,nan,nan
3038.276,12223.4,nan,nan
3040.171,12735.3,nan,nan
3042.064,13645.45,nan,nan
3043.958,15198.25,nan,nan
3045.851,17699.8,nan,nan
3047.743,21056.75,nan,nan
3049.635,24554.5,nan,nan
3051.526,27387.65,nan,nan
3053.417,28424.9,nan,nan
3055.308,27875.7,nan,nan
3057.198,25846.2,nan,nan
3059.087,23145.35,nan,nan
3060.976,20685.55,nan,nan
3062.865,18742.3,nan,nan
3064.752,16932.7,nan,nan
3066.64,15179.9,nan,nan
3068.527,13058.95,nan,nan
3070.413,11137.0,nan,nan
3072.299,9395.45,nan,nan
3074.185,7853.45,nan,nan
3076.07,6664.4,nan,nan
3077.954,5788.2,nan,nan
3079.838,5078.3,nan,nan
3081.722,4550.75,nan,nan
3083.605,4143.55,nan,nan
3085.487,3840.3,nan,nan
3087.369,3523.15,nan,nan
3089.251,3309.2,nan,nan
3091.132,3103.05,nan,nan
3093.012,2912.0,nan,nan
3094.892,2782.65,nan,nan
3096.772,2645.55,nan,nan
3098.651,2545.65,nan,nan
3100.53,2450.65,nan,nan
3102.408,2391.1,nan,nan
3104.285,2302.95,nan,nan
3106.162,2221.45,nan,nan
3108.039,2101.0,nan,nan
3109.915,2026.9,nan,nan
3111.791,1951.4,nan,nan
3113.666,1845.3,nan,nan
3115.541,1808.45,nan,nan
3117.415,1743.55,nan,nan
3119.288,1669.0,nan,nan
3121.162,1640.65,nan,nan
3123.034,1582.8,nan,nan
3124.907,1542.25,nan,nan
3126.778,1511.4,nan,nan
3128.649,1474.0,nan,nan
3130.52,1444.95,nan,nan
3132.39,1430.35,nan,nan
3134.26,1374.85,nan,nan
3136.129,1359.6,nan,nan
3137.998,1340.6,nan,nan
3139.867,1338.5,nan,nan
3141.734,1322.1,nan,nan
3143.602,1305.0,nan,nan
3145.469,1299.4,nan,nan
3147.335,1306.05,nan,nan
3149.201,1303.15,nan,nan
3151.066,1305.4,nan,nan
3152.931,1304.75,nan,nan
3154.795,1327.75,nan,nan
3156.659,1366.25,nan,nan
3158.523,1408.25,nan,nan
3160.386,1530.6,nan,nan
3162.248,1637.05,nan,nan
3164.11,1772.55,nan,nan
3165.972,1817.15,nan,nan
