raw - raw,raw - raw
Raman Shift,Intensity
Raw Data x cm-1,Raw Data y a. u.
param: nan,param: nan
raw data from C:\01_Code\ECPypsi_v0.7\data\raw\01_561nm_300g_5x3_mit1800_Toluol..txt,raw data from C:\01_Code\ECPypsi_v0.7\data\raw\01_561nm_300g_5x3_mit1800_Toluol..txt
149.887,1420.33333333333
152.611,1369.66666666667
155.334,1322.0
158.056,1306.33333333333
160.777,1258.66666666667
163.497,1250.33333333333
166.217,1217.0
168.936,1210.66666666667
171.654,1181.0
174.371,1137.66666666667
177.087,1119.0
179.802,1131.66666666667
182.516,1119.0
185.23,1072.0
187.943,1091.0
190.655,1099.0
193.366,1081.0
196.076,1093.33333333333
198.786,1090.66666666667
201.494,1143.33333333333
204.202,1131.33333333333
206.909,1206.66666666667
209.615,1265.33333333333
212.32,1357.0
215.024,1478.66666666667
217.728,1586.0
220.43,1701.0
223.132,1707.0
225.833,1668.0
228.533,1575.66666666667
231.233,1414.33333333333
233.931,1317.0
236.629,1236.0
239.326,1165.33333333333
242.022,1081.66666666667
244.717,1065.66666666667
247.411,1030.0
250.105,1008.33333333333
252.797,998.333333333333
255.489,995.666666666667
258.18,1002.66666666667
260.87,969.333333333333
263.559,979.666666666667
266.248,967.333333333333
268.936,939.666666666667
271.622,943.666666666667
274.308,968.666666666667
276.993,946.0
279.678,944.666666666667
282.361,934.0
285.044,954.666666666667
287.726,949.333333333333
290.407,964.0
293.087,952.333333333333
295.766,936.333333333333
298.445,936.666666666667
301.122,940.666666666667
303.799,952.333333333333
306.475,953.333333333333
309.15,938.0
311.825,940.333333333333
314.498,936.0
317.171,963.333333333333
319.843,954.333333333333
322.514,961.333333333333
325.184,972.666666666667
327.853,967.333333333333
330.522,960.666666666667
333.19,980.666666666667
335.857,984.333333333333
338.523,980.333333333333
341.188,992.333333333333
343.852,1034.66666666667
346.516,1034.0
349.179,1042.66666666667
351.841,1063.0
354.502,1053.33333333333
357.162,1049.0
359.822,1005.0
362.481,975.333333333333
365.139,981.0
367.796,985.0
370.452,967.666666666667
373.107,993.666666666667
375.762,972.0
378.416,1000.66666666667
381.069,948.333333333333
383.721,975.666666666667
386.372,971.0
389.023,1008.33333333333
391.673,974.333333333333
394.321,981.0
396.97,987.0
399.617,969.666666666667
402.263,976.0
404.909,990.333333333333
407.554,1010.66666666667
410.198,987.333333333333
412.841,1015.33333333333
415.483,1003.33333333333
418.125,1002.66666666667
420.766,985.0
423.406,993.333333333333
426.045,962.333333333333
428.683,986.666666666667
431.321,997.0
433.957,998.666666666667
436.593,989.333333333333
439.228,1021.33333333333
441.863,988.333333333333
444.496,1020.66666666667
447.129,987.333333333333
449.761,974.0
452.392,985.333333333333
455.022,1004.66666666667
457.652,974.0
460.28,988.666666666667
462.908,1022.66666666667
465.535,1014.33333333333
468.161,1024.0
470.787,1005.66666666667
473.411,998.0
476.035,997.0
478.658,991.666666666667
481.28,961.666666666667
483.902,939.666666666667
486.522,959.666666666667
489.142,985.0
491.761,963.0
494.379,983.666666666667
496.997,968.0
499.613,958.333333333333
502.229,943.666666666667
504.844,953.666666666667
507.458,943.0
510.072,922.333333333333
512.684,909.666666666667
515.296,966.666666666667
517.907,1056.0
520.518,1320.66666666667
523.127,1499.33333333333
525.736,1557.0
528.343,1509.33333333333
530.95,1387.66666666667
533.557,1095.66666666667
536.162,913.666666666667
538.767,866.0
541.371,855.0
543.974,815.0
546.576,833.333333333333
549.177,807.666666666667
551.778,812.666666666667
554.378,803.333333333333
556.977,779.333333333333
559.575,798.0
562.173,771.333333333333
564.769,782.0
567.365,783.0
569.96,788.333333333333
572.555,782.666666666667
575.148,761.333333333333
577.741,779.0
580.333,763.666666666667
582.924,771.333333333333
585.515,761.333333333333
588.104,766.333333333333
590.693,770.0
593.281,772.666666666667
595.868,787.0
598.455,788.333333333333
601.04,777.666666666667
603.625,791.0
606.209,778.666666666667
608.793,808.0
611.375,812.333333333333
613.957,841.333333333333
616.538,867.666666666667
619.118,945.333333333333
621.697,1025.33333333333
624.276,1090.0
626.854,1060.66666666667
629.431,1052.66666666667
632.007,999.0
634.582,914.333333333333
637.157,865.666666666667
639.731,807.666666666667
642.304,794.333333333333
644.876,765.0
647.448,765.0
650.019,776.666666666667
652.589,765.0
655.158,764.333333333333
657.726,743.333333333333
660.294,744.333333333333
662.861,739.0
665.427,755.0
667.992,745.333333333333
670.557,752.666666666667
673.121,740.666666666667
675.684,764.666666666667
678.246,748.333333333333
680.807,749.666666666667
683.368,732.0
685.928,740.666666666667
688.487,731.333333333333
691.045,734.666666666667
693.603,746.666666666667
696.16,758.0
698.716,741.666666666667
701.271,735.0
703.826,747.0
706.379,742.333333333333
708.932,751.0
711.484,747.333333333333
714.036,729.0
716.586,741.666666666667
719.136,739.333333333333
721.685,755.333333333333
724.234,765.0
726.781,771.666666666667
729.328,760.666666666667
731.874,804.333333333333
734.419,810.333333333333
736.964,785.0
739.507,789.333333333333
742.05,783.0
744.592,775.333333333333
747.134,755.0
749.675,744.666666666667
752.214,754.0
754.753,747.0
757.292,746.0
759.829,757.333333333333
762.366,757.666666666667
764.902,745.666666666667
767.438,748.333333333333
769.972,758.0
772.506,765.333333333333
775.039,806.333333333333
777.571,838.666666666667
780.102,963.333333333333
782.633,1291.33333333333
785.163,2222.0
787.692,2692.0
790.221,2657.0
792.748,2564.33333333333
795.275,2095.0
797.801,1278.66666666667
800.327,942.333333333333
802.851,897.333333333333
805.375,857.0
807.898,879.0
810.421,898.333333333333
812.942,873.666666666667
815.463,886.0
817.983,873.0
820.502,834.0
823.021,821.0
825.539,814.666666666667
828.056,785.666666666667
830.572,791.0
833.088,769.333333333333
835.602,790.333333333333
838.116,772.333333333333
840.63,781.666666666667
843.142,810.333333333333
845.654,816.666666666667
848.165,795.0
850.675,795.333333333333
853.185,784.0
855.693,761.666666666667
858.201,748.666666666667
860.709,755.333333333333
863.215,736.0
865.721,740.666666666667
868.226,746.0
870.73,730.333333333333
873.234,731.666666666667
875.736,748.333333333333
878.238,727.666666666667
880.74,731.0
883.24,727.0
885.74,751.666666666667
888.239,729.0
890.737,738.0
893.235,761.666666666667
895.731,750.333333333333
898.227,746.0
900.723,775.333333333333
903.217,759.0
905.711,743.666666666667
908.204,753.333333333333
910.696,742.666666666667
913.188,743.666666666667
915.678,731.666666666667
918.168,736.666666666667
920.658,744.666666666667
923.146,724.0
925.634,731.0
928.121,731.0
930.608,747.333333333333
933.093,729.333333333333
935.578,735.0
938.062,739.0
940.545,732.0
943.028,738.333333333333
945.51,722.666666666667
947.991,721.666666666667
950.471,738.333333333333
952.951,727.666666666667
955.43,736.666666666667
957.908,733.333333333333
960.386,745.666666666667
962.862,739.0
965.338,751.666666666667
967.814,748.666666666667
970.288,773.0
972.762,765.666666666667
975.235,774.666666666667
977.707,776.333333333333
980.179,779.333333333333
982.65,784.333333333333
985.12,775.333333333333
987.589,837.666666666667
990.058,865.333333333333
992.525,907.333333333333
994.993,941.0
997.459,1101.0
999.925,1822.0
1002.39,3509.66666666667
1004.854,3850.66666666667
1007.317,3876.33333333333
1009.78,3637.33333333333
1012.242,2784.33333333333
1014.703,1311.66666666667
1017.164,952.333333333333
1019.624,871.666666666667
1022.083,853.0
1024.541,888.333333333333
1026.999,1103.33333333333
1029.456,1606.33333333333
1031.912,1677.66666666667
1034.367,1650.0
1036.822,1578.0
1039.276,1267.33333333333
1041.729,911.333333333333
1044.182,816.0
1046.634,789.0
1049.085,769.666666666667
1051.535,751.0
1053.985,770.0
1056.433,773.0
1058.882,758.666666666667
1061.329,743.333333333333
1063.776,761.666666666667
1066.222,734.0
1068.667,760.333333333333
1071.112,747.333333333333
1073.555,767.666666666667
1075.999,743.666666666667
1078.441,755.0
1080.883,758.333333333333
1083.323,755.0
1085.764,756.0
1088.203,756.0
1090.642,739.333333333333
1093.08,755.0
1095.517,732.0
1097.954,731.666666666667
1100.39,746.333333333333
1102.825,735.0
1105.259,733.666666666667
1107.693,737.0
1110.126,728.333333333333
1112.558,727.666666666667
1114.99,735.666666666667
1117.421,733.333333333333
1119.851,743.333333333333
1122.28,731.666666666667
1124.709,735.333333333333
1127.137,743.0
1129.564,736.333333333333
1131.991,734.666666666667
1134.417,716.666666666667
1136.842,737.333333333333
1139.266,750.666666666667
1141.69,732.333333333333
1144.113,773.0
1146.535,785.333333333333
1148.957,785.666666666667
1151.377,846.0
1153.798,901.333333333333
1156.217,957.0
1158.636,964.333333333333
1161.054,954.666666666667
1163.471,940.0
1165.887,867.666666666667
1168.303,848.0
1170.718,821.666666666667
1173.133,850.333333333333
1175.546,874.666666666667
1177.959,926.666666666667
1180.372,923.666666666667
1182.783,957.0
1185.194,923.333333333333
1187.604,895.0
1190.014,854.666666666667
1192.423,851.333333333333
1194.831,800.333333333333
1197.238,838.0
1199.645,832.0
1202.05,868.0
1204.456,952.333333333333
1206.86,1163.66666666667
1209.264,1468.33333333333
1211.667,1560.66666666667
1214.069,1623.33333333333
1216.471,1469.33333333333
1218.872,1201.66666666667
1221.272,923.666666666667
1223.672,805.333333333333
1226.071,781.666666666667
1228.469,767.0
1230.866,759.333333333333
1233.263,740.333333333333
1235.659,735.0
1238.054,734.666666666667
1240.449,752.666666666667
1242.843,749.666666666667
1245.236,732.666666666667
1247.629,731.666666666667
1250.021,743.333333333333
1252.412,733.666666666667
1254.802,746.333333333333
1257.192,725.0
1259.581,738.333333333333
1261.969,722.0
1264.357,728.666666666667
1266.744,714.0
1269.13,729.0
1271.516,720.666666666667
1273.9,723.0
1276.284,716.666666666667
1278.668,719.666666666667
1281.051,724.0
1283.433,724.333333333333
1285.814,721.0
1288.195,714.0
1290.575,729.666666666667
1292.954,727.0
1295.332,718.333333333333
1297.71,726.333333333333
1300.088,720.333333333333
1302.464,726.666666666667
1304.84,717.666666666667
1307.215,729.0
1309.589,745.666666666667
1311.963,738.333333333333
1314.336,731.333333333333
1316.708,740.333333333333
1319.08,749.0
1321.451,732.0
1323.821,748.0
1326.191,747.666666666667
1328.559,766.666666666667
1330.928,757.666666666667
1333.295,750.666666666667
1335.662,769.333333333333
1338.028,756.666666666667
1340.393,739.666666666667
1342.758,744.333333333333
1345.122,741.0
1347.486,725.666666666667
1349.848,746.333333333333
1352.21,746.0
1354.571,745.333333333333
1356.932,739.0
1359.292,741.333333333333
1361.651,750.333333333333
1364.01,760.0
1366.367,770.333333333333
1368.725,782.0
1371.081,808.333333333333
1373.437,835.0
1375.792,941.0
1378.146,986.0
1380.5,1046.33333333333
1382.853,1041.33333333333
1385.205,989.333333333333
1387.557,913.666666666667
1389.908,849.333333333333
1392.258,822.333333333333
1394.608,791.0
1396.957,775.666666666667
1399.305,772.333333333333
1401.653,766.666666666667
1404.0,754.333333333333
1406.346,753.0
1408.691,757.666666666667
1411.036,740.666666666667
1413.38,763.666666666667
1415.724,752.666666666667
1418.067,758.666666666667
1420.409,764.333333333333
1422.75,774.333333333333
1425.091,776.333333333333
1427.431,798.0
1429.771,791.333333333333
1432.109,802.333333333333
1434.447,824.0
1436.785,819.333333333333
1439.121,826.0
1441.458,821.333333333333
1443.793,819.666666666667
1446.128,813.0
1448.462,812.666666666667
1450.795,801.333333333333
1453.127,798.666666666667
1455.459,817.333333333333
1457.791,817.0
1460.121,785.333333333333
1462.451,788.0
1464.781,782.333333333333
1467.109,791.0
1469.437,777.333333333333
1471.764,774.333333333333
1474.091,762.666666666667
1476.417,776.666666666667
1478.742,757.333333333333
1481.067,741.333333333333
1483.39,759.0
1485.714,756.0
1488.036,755.666666666667
1490.358,776.0
1492.679,764.666666666667
1495.0,772.666666666667
1497.32,768.0
1499.639,770.0
1501.957,785.666666666667
1504.275,767.666666666667
1506.592,755.666666666667
1508.909,753.333333333333
1511.225,745.0
1513.54,740.0
1515.854,743.666666666667
1518.168,745.0
1520.481,745.666666666667
1522.794,753.333333333333
1525.106,733.666666666667
1527.417,722.333333333333
1529.727,739.666666666667
1532.037,762.666666666667
1534.346,727.0
1536.655,736.666666666667
1538.963,754.666666666667
1541.27,755.666666666667
1543.576,759.0
1545.882,732.333333333333
1548.188,740.0
1550.492,739.333333333333
1552.796,748.0
1555.099,759.0
1557.402,747.666666666667
1559.703,756.0
1562.005,763.666666666667
1564.305,755.666666666667
1566.605,774.666666666667
1568.904,786.0
1571.203,782.666666666667
1573.501,809.0
1575.798,829.0
1578.095,849.666666666667
1580.391,942.0
1582.686,970.0
1584.98,1030.33333333333
1587.274,1051.33333333333
1589.568,1038.66666666667
1591.86,1022.33333333333
1594.152,978.666666666667
1596.443,968.666666666667
1598.734,996.333333333333
1601.024,1105.66666666667
1603.313,1204.0
1605.602,1279.66666666667
1607.89,1250.33333333333
1610.177,1193.0
1612.464,1098.66666666667
1614.75,967.666666666667
1617.036,908.666666666667
1619.32,875.0
1621.604,852.333333333333
1623.888,815.0
1626.171,815.0
1628.453,793.666666666667
1630.734,791.666666666667
1633.015,781.333333333333
1635.295,768.0
1637.575,740.0
1639.854,737.333333333333
1642.132,732.0
1644.409,726.666666666667
1646.686,728.0
1648.962,740.333333333333
1651.238,729.0
1653.513,718.666666666667
1655.787,719.333333333333
1658.061,721.666666666667
1660.334,731.666666666667
1662.606,715.333333333333
1664.878,729.333333333333
1667.149,706.0
1669.419,717.666666666667
1671.689,722.333333333333
1673.958,713.0
1676.227,717.333333333333
1678.494,701.333333333333
1680.761,712.333333333333
1683.028,712.0
1685.294,720.666666666667
1687.559,709.0
1689.824,721.333333333333
1692.087,712.666666666667
1694.351,716.0
1696.613,703.0
1698.875,708.333333333333
1701.137,704.666666666667
1703.397,697.333333333333
1705.657,702.666666666667
1707.917,711.0
1710.176,694.0
1712.434,716.666666666667
1714.691,694.0
1716.948,689.0
1719.204,708.0
1721.46,694.333333333333
1723.714,700.0
1725.969,716.333333333333
1728.222,687.333333333333
1730.475,702.0
1732.728,713.0
1734.979,700.333333333333
1737.23,702.333333333333
1739.481,707.666666666667
1741.73,699.0
1743.98,689.0
1746.228,681.666666666667
1748.476,703.666666666667
1750.723,693.666666666667
1752.97,681.0
1755.216,680.333333333333
1757.461,703.0
1759.705,699.0
1761.949,711.666666666667
1764.193,692.0
1766.436,685.0
1768.678,706.333333333333
1770.919,691.666666666667
1773.16,694.0
1775.4,700.0
1777.64,700.0
1779.878,692.0
1782.117,716.333333333333
1784.354,710.0
1786.591,704.666666666667
1788.828,704.666666666667
1791.063,703.333333333333
1793.299,714.0
1795.533,690.333333333333
1797.767,702.666666666667
1800.0,697.333333333333
1802.233,688.333333333333
1804.464,699.0
1806.696,684.333333333333
1808.926,694.333333333333
1811.156,702.333333333333
1813.386,704.666666666667
1815.615,695.666666666667
1817.843,687.0
1820.07,693.666666666667
1822.297,688.666666666667
1824.523,684.333333333333
1826.749,701.666666666667
1828.974,689.333333333333
1831.198,694.666666666667
1833.422,681.666666666667
1835.645,689.666666666667
1837.868,690.0
1840.089,695.666666666667
1842.311,692.666666666667
1844.531,701.333333333333
1846.751,691.333333333333
1848.97,692.333333333333
1851.189,689.0
1853.407,684.666666666667
1855.625,683.333333333333
1857.841,685.0
1860.058,688.0
1862.273,684.333333333333
1864.488,689.0
1866.702,693.333333333333
1868.916,692.0
1871.129,694.333333333333
1873.341,687.0
1875.553,683.666666666667
1877.764,684.333333333333
1879.975,696.0
1882.185,677.666666666667
1884.394,686.0
1886.603,686.666666666667
1888.811,688.666666666667
1891.018,682.0
1893.225,682.666666666667
1895.431,690.333333333333
1897.637,686.0
1899.842,682.666666666667
1902.046,691.0
1904.25,693.666666666667
1906.453,687.333333333333
1908.655,690.666666666667
1910.857,685.666666666667
1913.058,697.0
1915.259,688.0
1917.459,699.666666666667
1919.658,701.333333333333
1921.857,689.333333333333
1924.055,699.0
1926.253,681.666666666667
1928.45,689.666666666667
1930.646,702.666666666667
1932.842,697.0
1935.037,678.666666666667
1937.231,691.666666666667
1939.425,687.333333333333
1941.618,685.666666666667
1943.811,683.666666666667
1946.002,688.0
1948.194,695.0
1950.384,685.666666666667
1952.575,676.0
1954.764,694.333333333333
1956.953,684.333333333333
1959.141,687.0
1961.329,697.0
1963.516,675.666666666667
1965.702,678.666666666667
1967.888,687.0
1970.073,692.333333333333
1972.258,689.666666666667
1974.442,675.666666666667
1976.625,694.0
1978.808,685.333333333333
1980.99,691.333333333333
1983.171,677.666666666667
1985.352,680.666666666667
1987.533,689.0
1989.712,684.0
1991.891,688.333333333333
1994.07,684.333333333333
1996.248,684.333333333333
1998.425,670.333333333333
2000.601,683.666666666667
2002.777,681.666666666667
2004.953,679.333333333333
2007.128,663.0
2009.302,672.0
2011.475,677.0
2013.648,679.0
2015.821,669.333333333333
2017.992,683.666666666667
2020.163,685.0
2022.334,664.0
2024.504,668.0
2026.673,679.333333333333
2028.842,678.333333333333
2031.01,689.0
2033.177,679.0
2035.344,674.666666666667
2037.511,688.333333333333
2039.676,680.666666666667
2041.841,671.666666666667
2044.006,679.333333333333
2046.17,661.333333333333
2048.333,667.333333333333
2050.496,682.0
2052.658,678.333333333333
2054.819,687.0
2056.98,688.666666666667
2059.14,666.666666666667
2061.3,687.0
2063.459,667.0
2065.617,676.0
2067.775,670.666666666667
2069.932,681.333333333333
2072.089,670.666666666667
2074.245,678.666666666667
2076.4,683.0
2078.555,667.0
2080.709,670.0
2082.863,666.333333333333
2085.016,672.0
2087.168,672.666666666667
2089.32,681.666666666667
2091.471,675.0
2093.622,668.333333333333
2095.772,670.666666666667
2097.921,676.333333333333
2100.07,672.333333333333
2102.218,680.333333333333
2104.366,671.666666666667
2106.513,671.666666666667
2108.659,670.0
2110.805,687.333333333333
2112.95,664.666666666667
2115.095,666.666666666667
2117.239,678.666666666667
2119.382,668.333333333333
2121.525,670.666666666667
2123.668,661.333333333333
2125.809,670.0
2127.95,669.0
2130.091,670.0
2132.231,658.0
2134.37,684.0
2136.508,670.666666666667
2138.647,667.0
2140.784,661.666666666667
2142.921,668.666666666667
2145.057,678.0
2147.193,662.0
2149.328,670.666666666667
2151.463,669.0
2153.596,667.333333333333
2155.73,669.666666666667
2157.863,662.0
2159.995,663.333333333333
2162.126,669.333333333333
2164.257,671.666666666667
2166.388,661.0
2168.517,676.333333333333
2170.647,665.0
2172.775,673.0
2174.903,674.333333333333
2177.031,681.333333333333
2179.157,662.0
2181.284,674.333333333333
2183.409,680.666666666667
2185.534,676.666666666667
2187.659,678.0
2189.783,671.0
2191.906,663.333333333333
2194.029,666.333333333333
2196.151,682.0
2198.272,665.666666666667
2200.393,663.666666666667
2202.514,666.0
2204.633,669.666666666667
2206.753,675.666666666667
2208.871,675.0
2210.989,675.0
2213.107,664.0
2215.223,674.666666666667
2217.34,668.333333333333
2219.455,666.0
2221.57,660.666666666667
2223.685,655.666666666667
2225.799,674.0
2227.912,670.0
2230.025,670.666666666667
2232.137,675.666666666667
2234.249,659.333333333333
2236.36,660.333333333333
2238.47,662.0
2240.58,670.333333333333
2242.689,673.0
2244.798,665.333333333333
2246.906,661.666666666667
2249.013,668.333333333333
2251.12,667.0
2253.227,665.333333333333
2255.332,675.0
2257.438,668.0
2259.542,666.333333333333
2261.646,679.666666666667
2263.75,676.666666666667
2265.852,671.333333333333
2267.955,674.0
2270.056,657.0
2272.157,669.666666666667
2274.258,670.0
2276.358,666.666666666667
2278.457,676.0
2280.556,657.333333333333
2282.654,663.333333333333
2284.752,661.666666666667
2286.849,677.0
2288.946,670.0
2291.041,672.333333333333
2293.137,660.666666666667
2295.232,673.666666666667
2297.326,664.0
2299.419,669.333333333333
2301.512,665.666666666667
2303.605,674.0
2305.697,663.0
2307.788,660.0
2309.879,677.333333333333
2311.969,676.0
2314.058,669.333333333333
2316.147,666.0
2318.236,687.333333333333
2320.324,663.333333333333
2322.411,671.0
2324.498,669.0
2326.584,663.333333333333
2328.669,672.333333333333
2330.754,679.666666666667
2332.839,665.333333333333
2334.923,655.666666666667
2337.006,662.0
2339.089,654.666666666667
2341.171,656.333333333333
2343.252,654.333333333333
2345.333,664.0
2347.414,658.0
2349.493,656.666666666667
2351.573,658.0
2353.651,658.666666666667
2355.73,667.333333333333
2357.807,661.333333333333
2359.884,666.0
2361.961,660.0
2364.036,683.0
2366.112,653.0
2368.186,666.0
2370.261,655.666666666667
2372.334,664.666666666667
2374.407,670.666666666667
2376.48,666.333333333333
2378.551,675.0
2380.623,660.0
2382.694,670.0
2384.764,660.666666666667
2386.833,660.333333333333
2388.902,666.0
2390.971,664.0
2393.039,662.333333333333
2395.106,659.0
2397.173,669.333333333333
2399.239,671.0
2401.305,670.666666666667
2403.37,662.333333333333
2405.434,674.333333333333
2407.498,667.666666666667
2409.562,675.0
2411.624,667.333333333333
2413.687,660.0
2415.748,661.666666666667
2417.81,671.0
2419.87,671.0
2421.93,669.0
2423.99,673.0
2426.049,671.333333333333
2428.107,667.333333333333
2430.165,678.333333333333
2432.222,684.0
2434.278,673.666666666667
2436.335,685.333333333333
2438.39,665.666666666667
2440.445,668.0
2442.499,666.0
2444.553,658.0
2446.606,669.666666666667
2448.659,663.666666666667
2450.711,659.666666666667
2452.763,668.0
2454.814,666.0
2456.864,666.0
2458.914,656.666666666667
2460.964,664.666666666667
2463.013,668.666666666667
2465.061,666.0
2467.108,660.333333333333
2469.156,668.666666666667
2471.202,670.333333333333
2473.248,668.0
2475.294,656.0
2477.339,655.666666666667
2479.383,661.666666666667
2481.427,665.0
2483.47,673.333333333333
2485.513,667.333333333333
2487.555,676.0
2489.596,665.0
2491.637,668.333333333333
2493.678,664.666666666667
2495.718,657.333333333333
2497.757,661.666666666667
2499.796,654.666666666667
2501.834,665.0
2503.872,667.0
2505.909,660.666666666667
2507.945,662.0
2509.981,666.333333333333
2512.017,665.666666666667
2514.052,667.0
2516.086,681.0
2518.12,645.333333333333
2520.153,664.333333333333
2522.186,653.666666666667
2524.218,666.0
2526.25,660.0
2528.281,669.0
2530.311,659.333333333333
2532.341,669.0
2534.371,670.666666666667
2536.4,677.333333333333
2538.428,666.666666666667
2540.456,685.0
2542.483,673.333333333333
2544.509,671.666666666667
2546.536,686.333333333333
2548.561,684.333333333333
2550.586,685.0
2552.611,687.333333333333
2554.635,686.0
2556.658,688.333333333333
2558.681,684.0
2560.703,672.0
2562.725,675.0
2564.746,679.666666666667
2566.767,675.0
2568.787,681.666666666667
2570.806,678.0
2572.825,684.333333333333
2574.844,673.333333333333
2576.861,684.666666666667
2578.879,694.0
2580.896,689.0
2582.912,706.0
2584.928,688.333333333333
2586.943,701.666666666667
2588.957,685.0
2590.971,673.666666666667
2592.985,677.666666666667
2594.998,673.666666666667
2597.01,684.0
2599.022,672.333333333333
2601.034,679.333333333333
2603.045,705.0
2605.055,687.0
2607.065,690.666666666667
2609.074,690.0
2611.082,706.666666666667
2613.09,665.333333333333
2615.098,678.666666666667
2617.105,666.666666666667
2619.112,677.666666666667
2621.117,668.666666666667
2623.123,675.333333333333
2625.128,663.333333333333
2627.132,661.0
2629.136,652.666666666667
2631.139,659.666666666667
2633.142,657.666666666667
2635.144,667.666666666667
2637.146,654.666666666667
2639.147,662.666666666667
2641.147,661.666666666667
2643.147,657.0
2645.147,664.333333333333
2647.146,662.0
2649.144,656.333333333333
2651.142,661.0
2653.139,658.333333333333
2655.136,661.666666666667
2657.132,675.0
2659.128,665.666666666667
2661.123,667.333333333333
2663.118,672.0
2665.112,661.333333333333
2667.105,668.666666666667
2669.098,654.666666666667
2671.091,647.333333333333
2673.083,660.666666666667
2675.074,655.666666666667
2677.065,675.666666666667
2679.055,651.666666666667
2681.045,654.333333333333
2683.034,658.666666666667
2685.023,656.666666666667
2687.011,656.666666666667
2688.999,666.0
2690.986,658.333333333333
2692.973,662.333333333333
2694.959,657.666666666667
2696.944,673.666666666667
2698.929,655.666666666667
2700.914,661.666666666667
2702.898,673.0
2704.881,662.0
2706.864,669.666666666667
2708.846,671.0
2710.828,661.0
2712.809,662.0
2714.79,668.333333333333
2716.77,660.333333333333
2718.75,670.0
2720.729,684.666666666667
2722.708,679.0
2724.686,684.666666666667
2726.664,696.666666666667
2728.641,716.333333333333
2730.617,744.0
2732.593,791.0
2734.569,786.666666666667
2736.543,782.666666666667
2738.518,767.0
2740.492,729.666666666667
2742.465,717.333333333333
2744.438,701.333333333333
2746.41,693.666666666667
2748.382,688.0
2750.353,672.333333333333
2752.324,675.333333333333
2754.294,668.333333333333
2756.264,682.333333333333
2758.233,677.0
2760.201,675.666666666667
2762.169,670.0
2764.137,672.666666666667
2766.104,678.666666666667
2768.07,668.666666666667
2770.036,669.333333333333
2772.002,690.666666666667
2773.967,670.333333333333
2775.931,683.666666666667
2777.895,688.666666666667
2779.858,678.333333333333
2781.821,674.333333333333
2783.783,666.666666666667
2785.745,678.0
2787.706,674.666666666667
2789.667,669.333333333333
2791.627,695.0
2793.587,685.333333333333
2795.546,681.333333333333
2797.505,674.0
2799.463,673.0
2801.42,677.333333333333
2803.377,671.666666666667
2805.334,684.333333333333
2807.29,685.333333333333
2809.245,684.333333333333
2811.2,697.0
2813.155,700.333333333333
2815.109,674.666666666667
2817.062,687.333333333333
2819.015,698.0
2820.968,692.0
2822.919,688.0
2824.871,698.0
2826.822,689.0
2828.772,695.333333333333
2830.722,706.0
2832.671,713.333333333333
2834.62,709.666666666667
2836.568,715.666666666667
2838.515,713.666666666667
2840.463,754.333333333333
2842.409,737.0
2844.355,769.666666666667
2846.301,790.333333333333
2848.246,803.666666666667
2850.191,840.0
2852.135,870.666666666667
2854.078,896.666666666667
2856.021,931.0
2857.964,957.333333333333
2859.906,964.0
2861.848,985.0
2863.789,1016.33333333333
2865.729,974.0
2867.669,996.0
2869.608,1033.66666666667
2871.547,1017.0
2873.486,1020.66666666667
2875.424,989.666666666667
2877.361,995.666666666667
2879.298,960.666666666667
2881.234,949.0
2883.17,917.333333333333
2885.105,904.333333333333
2887.04,912.0
2888.974,934.666666666667
2890.908,894.333333333333
2892.841,921.0
2894.774,930.666666666667
2896.706,940.333333333333
2898.638,1014.33333333333
2900.569,1061.66666666667
2902.5,1107.33333333333
2904.43,1173.0
2906.36,1279.33333333333
2908.289,1458.33333333333
2910.218,1572.33333333333
2912.146,1680.66666666667
2914.074,1863.0
2916.001,1951.66666666667
2917.927,1972.33333333333
2919.854,1945.66666666667
2921.779,1871.33333333333
2923.704,1747.66666666667
2925.629,1649.33333333333
2927.553,1482.66666666667
2929.477,1398.0
2931.4,1284.33333333333
2933.322,1204.66666666667
2935.244,1128.0
2937.166,1119.66666666667
2939.087,1079.66666666667
2941.007,1035.66666666667
2942.927,995.0
2944.847,1013.66666666667
2946.766,1003.66666666667
2948.684,993.0
2950.602,981.333333333333
2952.52,976.333333333333
2954.437,949.333333333333
2956.353,917.0
2958.269,930.666666666667
2960.185,935.0
2962.1,891.0
2964.014,923.666666666667
2965.928,893.0
2967.841,909.666666666667
2969.754,913.666666666667
2971.667,944.0
2973.579,965.0
2975.49,1024.0
2977.401,1081.33333333333
2979.311,1101.66666666667
2981.221,1083.0
2983.131,1049.33333333333
2985.04,1005.0
2986.948,943.333333333333
2988.856,934.0
2990.763,896.666666666667
2992.67,906.0
2994.577,955.0
2996.482,981.333333333333
2998.388,959.666666666667
3000.293,1020.0
3002.197,1017.66666666667
3004.101,1027.0
3006.004,1011.33333333333
3007.907,985.666666666667
3009.81,975.0
3011.712,988.0
3013.613,993.0
3015.514,1006.33333333333
3017.414,1057.0
3019.314,1045.66666666667
3021.213,1119.0
3023.112,1176.66666666667
3025.011,1241.66666666667
3026.909,1310.33333333333
3028.806,1397.0
3030.703,1488.33333333333
3032.599,1489.0
3034.495,1574.0
3036.39,1541.33333333333
3038.285,1595.33333333333
3040.18,1641.66666666667
3042.074,1724.0
3043.967,1903.33333333333
3045.86,2083.66666666667
3047.752,2336.66666666667
3049.644,2698.33333333333
3051.536,2951.33333333333
3053.427,3009.0
3055.317,2891.33333333333
3057.207,2791.66666666667
3059.096,2561.66666666667
3060.985,2363.0
3062.874,2185.33333333333
3064.762,2032.66666666667
3066.649,1823.66666666667
3068.536,1690.66666666667
3070.423,1491.33333333333
3072.309,1361.66666666667
3074.194,1261.66666666667
3076.079,1120.66666666667
3077.963,1068.66666666667
3079.847,1011.33333333333
3081.731,970.333333333333
3083.614,915.666666666667
3085.496,898.0
3087.378,866.666666666667
3089.26,839.0
3091.141,835.666666666667
3093.022,797.666666666667
3094.902,797.666666666667
3096.781,807.0
3098.66,784.333333333333
3100.539,783.333333333333
3102.417,777.666666666667
3104.294,769.0
3106.172,752.333333333333
3108.048,755.333333333333
3109.924,753.333333333333
3111.8,723.666666666667
3113.675,728.666666666667
3115.55,724.666666666667
3117.424,711.333333333333
3119.298,725.666666666667
3121.171,706.0
3123.043,706.0
3124.916,689.333333333333
3126.787,693.0
3128.659,709.666666666667
3130.529,681.666666666667
3132.4,683.666666666667
3134.269,691.333333333333
3136.139,683.333333333333
3138.007,684.0
3139.876,680.333333333333
3141.743,686.0
3143.611,679.0
3145.478,682.666666666667
3147.344,681.666666666667
3149.21,683.666666666667
3151.075,679.666666666667
3152.94,686.0
3154.805,681.0
3156.668,682.333333333333
3158.532,669.333333333333
3160.395,704.0
3162.257,717.0
3164.119,712.666666666667
3165.981,726.333333333333
